time spent so far, current solution cost, current qty moves
-2.76658e+09,539156,0
2.4e-05,539124,1
2.9769,539076,3
3.39113,539036,4
3.74825,538992,5
29.2309,538962,26
29.7923,538906,28
95.2445,538838,87
98.912,538724,88
101.685,538676,90
101.917,538621,91
105.162,538570,93
105.557,538497,94
1547.3,538497,1345
